Wavelength nm.	RawData ...
190.00	2.066650
191.00	2.181885
192.00	2.244507
193.00	2.243652
194.00	2.170898
195.00	2.012329
196.00	1.758789
197.00	1.517212
198.00	1.270508
199.00	1.065430
200.00	0.898926
201.00	0.745728
202.00	0.635132
203.00	0.557739
204.00	0.498169
205.00	0.461548
206.00	0.440430
207.00	0.427734
208.00	0.424316
209.00	0.424316
210.00	0.427979
211.00	0.430908
212.00	0.435791
213.00	0.439697
214.00	0.445068
215.00	0.452026
216.00	0.459229
217.00	0.469238
218.00	0.480713
219.00	0.490845
220.00	0.497070
221.00	0.499268
222.00	0.494385
223.00	0.483765
224.00	0.464966
225.00	0.440796
226.00	0.413208
227.00	0.378052
228.00	0.341187
229.00	0.304077
230.00	0.267944
231.00	0.235229
232.00	0.203247
233.00	0.174561
234.00	0.150146
235.00	0.129761
236.00	0.113159
237.00	0.100464
238.00	0.088623
239.00	0.078613
240.00	0.070801
241.00	0.065186
242.00	0.060913
243.00	0.056885
244.00	0.053955
245.00	0.051392
246.00	0.049438
247.00	0.047607
248.00	0.045898
249.00	0.044312
250.00	0.042969
251.00	0.042114
252.00	0.041382
253.00	0.041382
254.00	0.041016
255.00	0.041138
256.00	0.040283
257.00	0.040161
258.00	0.039551
259.00	0.040039
260.00	0.040649
261.00	0.042603
262.00	0.045166
263.00	0.048706
264.00	0.052856
265.00	0.058594
266.00	0.064575
267.00	0.071167
268.00	0.078857
269.00	0.087524
270.00	0.096802
271.00	0.106323
272.00	0.115601
273.00	0.126343
274.00	0.137329
275.00	0.149292
276.00	0.161133
277.00	0.173462
278.00	0.184692
279.00	0.197021
280.00	0.208862
281.00	0.220215
282.00	0.229858
283.00	0.237671
284.00	0.245605
285.00	0.252197
286.00	0.256836
287.00	0.258667
288.00	0.259766
289.00	0.258301
290.00	0.254395
291.00	0.248535
292.00	0.241333
293.00	0.232910
294.00	0.222656
295.00	0.210938
296.00	0.196533
297.00	0.182373
298.00	0.167847
299.00	0.149780
300.00	0.130981
301.00	0.113525
302.00	0.096313
303.00	0.080566
304.00	0.065674
305.00	0.052002
306.00	0.041260
307.00	0.030396
308.00	0.022339
309.00	0.015991
310.00	0.010742
311.00	0.006958
312.00	0.004272
313.00	0.002808
314.00	0.001099
315.00	0.000000
316.00	0.000000
317.00	-0.000244
318.00	-0.000854
319.00	-0.000977
320.00	-0.001465
321.00	-0.000732
322.00	-0.001343
323.00	-0.002075
324.00	-0.001831
325.00	-0.001709
326.00	-0.001465
327.00	0.000000
328.00	-0.001343
329.00	-0.001709
330.00	-0.001709
331.00	-0.001831
332.00	-0.001343
333.00	-0.001709
334.00	-0.001221
335.00	-0.001587
336.00	-0.001953
337.00	-0.001587
338.00	-0.001709
339.00	-0.001831
340.00	-0.001343
341.00	-0.001343
342.00	-0.001465
343.00	-0.001709
344.00	-0.001831
345.00	-0.001343
346.00	-0.001587
347.00	-0.001831
348.00	-0.001465
349.00	-0.001343
350.00	-0.001953
351.00	-0.001343
352.00	-0.001099
353.00	-0.000854
354.00	-0.001221
355.00	-0.001221
356.00	-0.001465
357.00	-0.000610
358.00	-0.000977
359.00	-0.001221
360.00	-0.000366
361.00	-0.000732
362.00	-0.001343
363.00	-0.000854
364.00	-0.000732
365.00	-0.000610
366.00	-0.003174
367.00	-0.003052
368.00	-0.002930
369.00	-0.003174
370.00	-0.003296
371.00	-0.002686
372.00	-0.003174
373.00	-0.003296
374.00	-0.002441
375.00	-0.002686
376.00	-0.002441
377.00	-0.003052
378.00	-0.003052
379.00	-0.002441
380.00	-0.002930
381.00	-0.002808
382.00	-0.003052
383.00	-0.002319
384.00	-0.002686
385.00	-0.002075
386.00	-0.002441
387.00	-0.001831
388.00	-0.002075
389.00	-0.002441
390.00	-0.002197
391.00	-0.001953
392.00	-0.002441
393.00	-0.001953
394.00	-0.002197
395.00	-0.001831
396.00	-0.002197
397.00	-0.001709
398.00	-0.001953
399.00	-0.001587
400.00	-0.002075
401.00	-0.001953
402.00	-0.001953
403.00	-0.001709
404.00	-0.001709
405.00	-0.001709
406.00	-0.001953
407.00	-0.001587
408.00	-0.001587
409.00	-0.001709
410.00	-0.001709
411.00	-0.001221
412.00	-0.001831
413.00	-0.001709
414.00	-0.001709
415.00	-0.001709
416.00	-0.001709
417.00	-0.002075
418.00	-0.001709
419.00	-0.002197
420.00	-0.002075
421.00	-0.001953
422.00	-0.001831
423.00	-0.001831
424.00	-0.001953
425.00	-0.001587
426.00	-0.001709
427.00	-0.001831
428.00	-0.001587
429.00	-0.001709
430.00	-0.001343
431.00	-0.001709
432.00	-0.001709
433.00	-0.001465
434.00	-0.000977
435.00	-0.001465
436.00	-0.001221
437.00	-0.001099
438.00	-0.000977
439.00	-0.000977
440.00	-0.001099
441.00	-0.000977
442.00	-0.001099
443.00	-0.000977
444.00	-0.000854
445.00	-0.000854
446.00	-0.000977
447.00	-0.001099
448.00	-0.001343
449.00	-0.001343
450.00	-0.001465
451.00	-0.001831
452.00	-0.001709
453.00	-0.001831
454.00	-0.001587
455.00	-0.002197
456.00	-0.001831
457.00	-0.001465
458.00	-0.001587
459.00	-0.001953
460.00	-0.001709
461.00	-0.001587
462.00	-0.001343
463.00	-0.001465
464.00	-0.001465
465.00	-0.001465
466.00	-0.001343
467.00	-0.001221
468.00	-0.001343
469.00	-0.001587
470.00	-0.001465
471.00	-0.001587
472.00	-0.001587
473.00	-0.001831
474.00	-0.001465
475.00	-0.001465
476.00	-0.001587
477.00	-0.001465
478.00	-0.001343
479.00	-0.001465
480.00	-0.001465
481.00	-0.001221
482.00	-0.001343
483.00	-0.001465
484.00	-0.001465
485.00	-0.001465
486.00	-0.001343
487.00	-0.001587
488.00	-0.001465
489.00	-0.001465
490.00	-0.001221
491.00	-0.001587
492.00	-0.001587
493.00	-0.001587
494.00	-0.001465
495.00	-0.000977
496.00	-0.001465
497.00	-0.001343
498.00	-0.001343
499.00	-0.001465
500.00	-0.001343
501.00	-0.001221
502.00	-0.001465
503.00	-0.001465
504.00	-0.001465
505.00	-0.001343
506.00	-0.001343
507.00	-0.001465
508.00	-0.001221
509.00	-0.001465
510.00	-0.001343
511.00	-0.001099
512.00	-0.001343
513.00	-0.001221
514.00	-0.001587
515.00	-0.001465
516.00	-0.001099
517.00	-0.001099
518.00	-0.001099
519.00	-0.001221
520.00	-0.001221
521.00	-0.001221
522.00	-0.001221
523.00	-0.001099
524.00	-0.000977
525.00	-0.001099
526.00	-0.001099
527.00	-0.001099
528.00	-0.001099
529.00	-0.001099
530.00	-0.000977
531.00	-0.001221
532.00	-0.001343
533.00	-0.001343
534.00	-0.001343
535.00	-0.000977
536.00	-0.001343
537.00	-0.001221
538.00	-0.001587
539.00	-0.001587
540.00	-0.001587
541.00	-0.001343
542.00	-0.001587
543.00	-0.001343
544.00	-0.001465
545.00	-0.001343
546.00	-0.001465
547.00	-0.001587
548.00	-0.001587
549.00	-0.001099
550.00	-0.001343
551.00	-0.001465
552.00	-0.001221
553.00	-0.001343
554.00	-0.001587
555.00	-0.001343
556.00	-0.001709
557.00	-0.001465
558.00	-0.001465
559.00	-0.001465
560.00	-0.001465
561.00	-0.001099
562.00	-0.001587
563.00	-0.001465
564.00	-0.001343
565.00	-0.001343
566.00	-0.001587
567.00	-0.001465
568.00	-0.001587
569.00	-0.001465
570.00	-0.001465
571.00	-0.001709
572.00	-0.001587
573.00	-0.001343
574.00	-0.001465
575.00	-0.001587
576.00	-0.001465
577.00	-0.001465
578.00	-0.001587
579.00	-0.001709
580.00	-0.001343
581.00	-0.001343
582.00	-0.001465
583.00	-0.001465
584.00	-0.001465
585.00	-0.001465
586.00	-0.001587
587.00	-0.001465
588.00	-0.001465
589.00	-0.001343
590.00	-0.001343
591.00	-0.001465
592.00	-0.001465
593.00	-0.001343
594.00	-0.001465
595.00	-0.001343
596.00	-0.001343
597.00	-0.001221
598.00	-0.001343
599.00	-0.001343
600.00	-0.001587
601.00	-0.001465
602.00	-0.001465
603.00	-0.001465
604.00	-0.001343
605.00	-0.001343
606.00	-0.001465
607.00	-0.001465
608.00	-0.001099
609.00	-0.001221
610.00	-0.001465
611.00	-0.001587
612.00	-0.001465
613.00	-0.001343
614.00	-0.001343
615.00	-0.001465
616.00	-0.001343
617.00	-0.001343
618.00	-0.001465
619.00	-0.001465
620.00	-0.001465
621.00	-0.001343
622.00	-0.001343
623.00	-0.001343
624.00	-0.001343
625.00	-0.001343
626.00	-0.001343
627.00	-0.001221
628.00	-0.001343
629.00	-0.001343
630.00	-0.001465
631.00	-0.001587
632.00	-0.001465
633.00	-0.001465
634.00	-0.001587
635.00	-0.001709
636.00	-0.001831
637.00	-0.001709
638.00	-0.001953
639.00	-0.001953
640.00	-0.001587
641.00	-0.001587
642.00	-0.001343
643.00	-0.001587
644.00	-0.001465
645.00	-0.001343
646.00	-0.001343
647.00	-0.001343
648.00	-0.001221
649.00	-0.001343
650.00	-0.001343
651.00	-0.001343
652.00	-0.001221
653.00	-0.001343
654.00	-0.001221
655.00	-0.001343
656.00	-0.001465
657.00	-0.001343
658.00	-0.001465
659.00	-0.001587
660.00	-0.001465
661.00	-0.001221
662.00	-0.001465
663.00	-0.001465
664.00	-0.001343
665.00	-0.001465
666.00	-0.001587
667.00	-0.001587
668.00	-0.001465
669.00	-0.001343
670.00	-0.001465
671.00	-0.001465
672.00	-0.001465
673.00	-0.001465
674.00	-0.001587
675.00	-0.001587
676.00	-0.001465
677.00	-0.001709
678.00	-0.001587
679.00	-0.001465
680.00	-0.001465
681.00	-0.001465
682.00	-0.001343
683.00	-0.001465
684.00	-0.001465
685.00	-0.001465
686.00	-0.001465
687.00	-0.001465
688.00	-0.001465
689.00	-0.001587
690.00	-0.001465
691.00	-0.001465
692.00	-0.001343
693.00	-0.001343
694.00	-0.001587
695.00	-0.001465
696.00	-0.001465
697.00	-0.001465
698.00	-0.001587
699.00	-0.001587
700.00	-0.001465
701.00	-0.001465
702.00	-0.001587
703.00	-0.001465
704.00	-0.001465
705.00	-0.001587
706.00	-0.001465
707.00	-0.001465
708.00	-0.001465
709.00	-0.001465
710.00	-0.001587
711.00	-0.001465
712.00	-0.001587
713.00	-0.001587
714.00	-0.001465
715.00	-0.001709
716.00	-0.001465
717.00	-0.001465
718.00	-0.001709
719.00	-0.001465
720.00	-0.001343
721.00	-0.001465
722.00	-0.001465
723.00	-0.001465
724.00	-0.001587
725.00	-0.001587
726.00	-0.001587
727.00	-0.001587
728.00	-0.001465
729.00	-0.001465
730.00	-0.001587
731.00	-0.001465
732.00	-0.001587
733.00	-0.001343
734.00	-0.001587
735.00	-0.001465
736.00	-0.001587
737.00	-0.001587
738.00	-0.001465
739.00	-0.001465
740.00	-0.001587
741.00	-0.001465
742.00	-0.001587
743.00	-0.001587
744.00	-0.001465
745.00	-0.001465
746.00	-0.001587
747.00	-0.001465
748.00	-0.001465
749.00	-0.001465
750.00	-0.001709
751.00	-0.001465
752.00	-0.001587
753.00	-0.001465
754.00	-0.001587
755.00	-0.001587
756.00	-0.001587
757.00	-0.001343
758.00	-0.001587
759.00	-0.001343
760.00	-0.001587
761.00	-0.001709
762.00	-0.001465
763.00	-0.001465
764.00	-0.001587
765.00	-0.001587
766.00	-0.001587
767.00	-0.001587
768.00	-0.001465
769.00	-0.001587
770.00	-0.001343
771.00	-0.001587
772.00	-0.001587
773.00	-0.001587
774.00	-0.001587
775.00	-0.001587
776.00	-0.001709
777.00	-0.001709
778.00	-0.001465
779.00	-0.001587
780.00	-0.001587
781.00	-0.001587
782.00	-0.001587
783.00	-0.001587
784.00	-0.001465
785.00	-0.001465
786.00	-0.001465
787.00	-0.001465
788.00	-0.001587
789.00	-0.001709
790.00	-0.001587
791.00	-0.001587
792.00	-0.001709
793.00	-0.001709
794.00	-0.001465
795.00	-0.001587
796.00	-0.001709
797.00	-0.001709
798.00	-0.001587
799.00	-0.001709
800.00	-0.001709
801.00	-0.001587
802.00	-0.001587
803.00	-0.001587
804.00	-0.001587
805.00	-0.001587
806.00	-0.001587
807.00	-0.001465
808.00	-0.001587
809.00	-0.001831
810.00	-0.001587
811.00	-0.001587
812.00	-0.001587
813.00	-0.001709
814.00	-0.001709
815.00	-0.001709
816.00	-0.001587
817.00	-0.001709
818.00	-0.001587
819.00	-0.001465
820.00	-0.001709
821.00	-0.001587
822.00	-0.001709
823.00	-0.001587
824.00	-0.001587
825.00	-0.001709
826.00	-0.001465
827.00	-0.001465
828.00	-0.001465
829.00	-0.001465
830.00	-0.001587
831.00	-0.001587
832.00	-0.001831
833.00	-0.001587
834.00	-0.001465
835.00	-0.001465
836.00	-0.001587
837.00	-0.001587
838.00	-0.001587
839.00	-0.001465
840.00	-0.001587
841.00	-0.001343
842.00	-0.001587
843.00	-0.001587
844.00	-0.001465
845.00	-0.001465
846.00	-0.001587
847.00	-0.001709
848.00	-0.001587
849.00	-0.001587
850.00	-0.001709
851.00	-0.001709
852.00	-0.001465
853.00	-0.001587
854.00	-0.001465
855.00	-0.001587
856.00	-0.001587
857.00	-0.001587
858.00	-0.001709
859.00	-0.001587
860.00	-0.001587
861.00	-0.001587
862.00	-0.001587
863.00	-0.001587
864.00	-0.001587
865.00	-0.001587
866.00	-0.001465
867.00	-0.001587
868.00	-0.001709
869.00	-0.001709
870.00	-0.001831
871.00	-0.001465
872.00	-0.001587
873.00	-0.001465
874.00	-0.001465
875.00	-0.001343
876.00	-0.001465
877.00	-0.001465
878.00	-0.001465
879.00	-0.001465
880.00	-0.001465
881.00	-0.001343
882.00	-0.001587
883.00	-0.001465
884.00	-0.001587
885.00	-0.001709
886.00	-0.001587
887.00	-0.001465
888.00	-0.001587
889.00	-0.001465
890.00	-0.001221
891.00	-0.001465
892.00	-0.001465
893.00	-0.001465
894.00	-0.001587
895.00	-0.001587
896.00	-0.001221
897.00	-0.001587
898.00	-0.001465
899.00	-0.001587
900.00	-0.001221